26
71
551
1022
1499
1926
2341
2822
3260
3668
4155
4631
5072
5595
6074
6511
6992
7475
7921
8410
8893
9327
9794
10274
10714
11199
11682
12146
12636
13115
13531
13993
14439
14849
15277
15722
16112
16513
16949
17353
17740
18195
18621
19027
19493
19916
20319
20755
21166
21555
22002
22457
22874
23323
23760
24175
24618
25062
25466
25915
26351
26747
27121
27477
27841
28201
28542
28910
29290
29660
30067
30545
31002
31472
31934
32366
32800
33258
33675
34102
34547
34954
35374
35878
36305
36713
37218
37644
38032
38395
38744
39104
39481
39844
40227
40626
41018
41513
42011
42493
42986
43421
43865
44332
44752
45143
45561
46009
46430
46875
47333
47701
48067
48434
48814
49340
49808
50289
50767
51213
51684
52163
52588
53078
53546
53960
54399
54868
55298
55716
56186
56567
56948
57344
57763
58305
58810
59268
59748
60203
60640
61110
61539
61935
62359
62774
63169
63567
64064
64538
64940
65417
65873
66257
66622
66991
67347
67718
68229
68705
69207
69680
70152
70651
71095
71530
72011
72464
72886
73329
73742
74136
74600
75009
75379
75760
76129
76634
77110
77577
78073
78530
78984
79431
79839
80299
80729
81138
81558
82011
82406
82804
83172
83527
83904
84268
84655
85146
85615
86106
86591
87026
87456
87921
88347
88780
89229
89654
90070
90544
90976
91384
91829
92287
92701
93194
93629
94039
94491
94940
95348
95800
96245
96653
97106
97506
97883
98252
98607
98971
99326
99687
100050
100410
100920
101370
101840
102340
102790
103270
103770
104210
104660
105120
105540
105990
106470
106910
107360
107840
108290
108740
109230
109660
110130
110590
111020
111460
111890
112250
112610
112980
113340
113750
114280
114760
115240
115700
116160
116640
117080
117520
117980
118390
118850
119320
119750
120210
120660
121090
121560
122020
122440
122870
123260
123620
123990
124360
124740
125290
125780
126260
126750
127190
127680
128150
128580
129030
129480
129910
130310
130760
131190
131590
132020
132410
132830
133280
133710
134160
134620
135030
135470
135880
136300
136750
137170
137590
138010
138380
138730
139100
139460
139840
140320
140800
141230
141740
142190
142660
143110
143530
143970
144420
144820
145280
145720
146100
146530
146970
147370
147760
148160
148510
148870
149230
149600
149990
150460
150910
151370
151850
152280
152470
152740
153140
153560
153970
154400
154790
155190
155620
156040
156440
156870
157230
157600
157960
158320
158690
159140
159590
160010
160450
160870
161300
161670
162030
162400
162740
163070
163430
163820
164200
164560
164970
165390
165880
166330
166820
167280
167720
168190
168630
169050
169500
169910
170280
170640
170990
171340
171710
172120
172540
172990
173440
173850
174280
174700
175070
175450
175800
176150
176500
176840
177190
177560
178040
178510
179020
179490
179930
180400
180910
181340
181810
182300
182720
183170
183630
184040
184450
184820
185200
185570
185940
186350
186840
187330
187810
188270
188710
189180
189640
190080
190540
190960
191380
191820
192230
192650
193090
193500
193890
194260
194610
194970
195320
195680
196090
196510
197030
197510
197950
198340
198720
199080
199430
199780
200110
200460
200800
201140
201490
201870
202250
202650
203020
203410
203830
204290
204750
205260
205710
206180
206670
207110
207530
207970
208350
208720
209090
209470
209930
210470
210990
211510
211980
212460
212950
213400
213860
214280
214700
215150
215570
215930
216310
216700
217140
217660
218130
218630
219080
219520
220000
220450
220850
221240
221610
221970
222360
222860
223320
223800
224290
224730
225180
225600
226050
226510
226940
227400
227850
228270
228710
229140
229560
230010
230430
230840
231310
231720
232150
232620
233030
233460
233910
234340
234750
235220
235650
236060
236510
236950
237360
237810
238260
238670
239100
239550
239960
240380
240760
241140
241500
241850
242200
242560
242940
243430
243920
244410
244850
245290
245770
246200
246640
247110
247530
248000
248490
248900
249360
249830
250240
250700
251190
251620
252080
252520
252940
253380
253820
254220
254670
255110
255520
255980
256430
256840
257270
257740
258160
258620
259060
259470
259920
260340
260740
261170
261570
261960
262380
262800
263200
263640
264080
264480
264950
265400
265820
266300
266760
267170
267620
268050
268450
268890
269320
269730
270170
270650
271070
271510
271960
272390
272790
273250
273680
274030
274400
274740
275080
275430
275790
276260
276650
277040
277430
277880
278340
278770
279220
279660
280080
280520
280980
281400
281890
282390
282840
283330
283800
284260
284740
285200
285660
286100
286570
287010
287480
287950
288380
288810
289280
289680
290080
290470
290820
291180
291530
291870
292250
292780
293280
293800
294270
294720
295180
295630
296070
296530
296960
297380
297870
298300
298780
299260
299710
300160
300630
301050
301520
301980
302390
302830
303280
303680
304110
304550
304970
305430
305900
306330
306790
307260
307680
308110
308550
308960
309360
309810
310270
310690
311060
311410
311770
312150
312590
313000
313470
313950
314340
314760
315180
315570
315980
316400
316800
317250
317690
318090
318560
319020
319430
319880
320330
320740
321210
321650
322080
322530
322980
323400
323890
324340
324810
325280
325720
326150
326650
327100
327510
327990
328450
328870
329320
329760
330150
330580
331010
331410
331870
332310
332740
333200
333620
334030
334470
334900
335300
335760
336210
336630
337100
337570
338000
338460
338930
339350
339820
340280
340680
341120
341590
342010
342420
342860
343280
343690
344140
344590
344990
345450
345890
346290
346700
347120
347500
347880
348310
348730
349120
349570
350030
350440
350900
351370
351790
352250
352720
353130
353580
354040
354440
354860
355300
355710
356150
356630
357040
357470
357910
358350
358770
359230
359680
360100
360550
361010
361420
361840
362270
362670
363080
363510
363930
364320
364730
365150
365540
365990
366460
366910
367360
367810
368220
368660
369100
369510
369920
370340
370770
371170
371620
372050
372470
372930
373360
373770
374200
374630
375050
375510
375970
376400
376830
377240
377590
377950
378300
378620
378960
379300
379690
380090
380600
381100
381560
382050
382540
383010
383500
383940
384390
384830
385230
385650
386080
386480
386900
387320
387720
388190
388620
389030
389490
389970
390390
390890
391360
391800
392260
392710
393120
393600
394070
394480
394950
395380
395780
396230
396660
397050
397510
397960
398330
398690
399050
399400
399750
400150
400560
401100
401590
402080
402570
403040
403510
403970
404390
404830
405260
405670
406130
406560
406940
407340
407790
408200
408660
409170
409620
410060
410520
410950
411370
411800
412180
412590
413080
413540
413980
414440
414880
415280
415720
416170
416580
417050
417470
417910
418370
418800
419230
419680
420100
420480
420910
421360
421780
422220
422670
423080
423500
423920
424330
424720
425140
425560
425940
426370
426810
427210
427640
428090
428490
428910
429300
429650
430000
430350
430700
431120
431640
432130
432630
433100
433550
434020
434450
434860
435300
435760
436170
436630
437080
437490
437930
438370
438760
439180
439610
440020
440420
440900
441400
441840
442310
442780
443210
443660
444140
444540
444990
445440
445850
446290
446740
447140
447530
447980
448450
448860
449320
449780
450180
450640
451100
451500
451960
452400
452800
453220
453700
454130
454560
455010
455440
455830
456260
456690
457070
457490
457910
458290
458690
459140
459560
459970
460400
460860
461260
461750
462210
462630
463080
463560
464000
464450
464930
465360
465780
466240
466700
467110
467550
468000
468400
468840
469270
469660
470110
470560
470990
471380
471820
472250
472650
473090
473540
473940
474370
474810
475210
475620
476060
476440
476800
477160
477500
477850
478190
478550
478890
479240
479620
480140
480610
481070
481570
482030
482490
482990
483460
483870
484250
484620
484960
485310
485650
485990
486360
486740
487150
487670
488180
488650
489160
489630
490090
490560
491020
491510
491980
492410
492890
493360
493780
494260
494690
495080
495510
495950
496360
496820
497280
497700
498150
498580
498990
499460
499930
500340
500810
501260
501670
502100
502500
502880
503310
503800
504200
504660
505120
505540
505940
506320
506660
507000
507340
507690
508050
508560
509080
509540
510050
510550
511010
511480
511970
512410
512870
513310
513740
514160
514600
515050
515450
515910
516360
516780
517190
517580
517950
518360
518750
519180
519610
520020
520410
520800
521170
521540
521910
522300
522660
523020
523420
523800
524160
524520
524900
525270
525610
525980
526330
526670
527020
527370
527730
528090
528460
528850
529220
529600
530040
530510
530960
531450
531920
532310
532750
533190
533600
534080
534530
534990
535430
535830
536270
536740
537230
537710
538200
538580
538970
539350
539720
540120
540600
541090
541610
542120
542590
543090
543550
543970
544420
544870
545270
545690
545880
546120
546480
546860
547250
547610
547960
548330
548700
549080
549530
550000
550480
550950
551390
551820
552310
552780
553190
553650
554080
554480
554920
555350
555770
556230
556710
557100
557460
557820
558180
558550
558950
559440
559940
560450
560930
561430
561900
562340
562790
563250
563660
564090
564540
564960
565350
565720
566090
566440
566820
567240
567670
568200
568670
569130
569620
570070
570500
570960
571370
571780
572240
572730
573160
573640
574080
574540
575000
575430
575930
576420
576840
577300
577740
578110
578470
578840
579200
579590
580110
580570
581070
581540
581980
582460
582890
583300
583770
584220
584650
585120
585580
585990
586450
586880
587300
587740
588160
588560
589010
589430
589850
590310
590760
591180
591640
592100
592510
592960
593370
593770
594200
594620
595020
595490
595970
596380
596840
597320
597740
598170
598640
599060
599450
599850
600050
600270
600570
600920
601290
601680
602230
602730
603230
603740
604200
604700
605180
605620
606060
606500
606930
607350
607790
608240
608660
609130
609590
610000
610430
610850
611240
611670
612090
612490
612950
613390
613810
614260
614690
615080
615520
615930
616320
616750
617150
617520
617890
618250
618600
618980
619470
619940
620440
620930
621360
621830
622290
622720
623150
623620
624050
624450
624890
625330
625730
626170
626580
626980
627410
627840
628260
628720
629220
629660
630090
630520
630940
631370
631850
632310
632750
633210
633650
634060
634500
634950
635360
635790
636230
636630
637060
637520
637940
638320
638750
639160
639560
639970
640380
640740
641080
641430
641760
642100
642450
642820
643220
643630
644010
644400
644790
645150
645510
645950
646360
646740
647120
647510
647880
648250
648630
649000
649340
649690
